# Acetonitrile Radian Distribution Function
# TITLE: New Six-site Acetonitrile Model for Simulations of LiquidAcetonitrile and its Aqueous Mixtures
# DOI: 10.1002/jcc.20721
#
# DATA Y1: YC-YC RDF
# DATA Y2: CT-YC RDF
# DATA Y3: YN-YC RDF
# DATA Y4: YN-CT RDF
# DATA Y5: YN-YN RDF
# DATA Y6: CT-CT RDF
#
# UNIT X1: [Angstrom]
# UNIT Y1: [a.u.] normalized 298.15K
# UNIT X2: [Angstrom]
# UNIT Y2: [a.u.] normalized 298.15K
# UNIT X3: [Angstrom]
# UNIT Y3: [a.u.] normalized 298.15K
# UNIT X4: [Angstrom]
# UNIT Y4: [a.u.] normalized 298.15K
# UNIT X5: [Angstrom]
# UNIT Y5: [a.u.] normalized 298.15K
# UNIT X6: [Angstrom]
# UNIT Y6: [a.u.] normalized 298.15K
#
# X1	 Y1          X2       Y2          X3       Y3         X4      Y4        X5      Y5        Y6      Y6
2.999985 0.000462    3.121285 0.004049    2.763670 0.006495   2.79603 0.00153   2.84066 0.00135   3.19116 0.00152
3.172137 0.040555    3.242322 0.049655    2.891224 0.031551   2.87871 0.04157   2.94250 0.02722   3.35663 0.04993
3.235601 0.102170    3.286789 0.086165    2.948433 0.072621   2.93574 0.11883   3.03152 0.07298   3.45185 0.13862
3.279878 0.168360    3.331051 0.154638    2.999125 0.134241   2.97997 0.20755   3.13309 0.16740   3.53417 0.26167
3.311384 0.234555    3.387867 0.257352    3.087534 0.289452   2.99871 0.29628   3.20912 0.27042   3.59737 0.38760
3.342875 0.303034    3.425539 0.357791    3.169542 0.446949   3.03661 0.37642   3.30407 0.42209   3.66055 0.51639
3.374366 0.371513    3.475984 0.458225    3.245019 0.627280   3.05535 0.46515   3.42422 0.64245   3.72374 0.64231
3.405872 0.437709    3.513642 0.560947    3.326940 0.798475   3.08046 0.55388   3.56339 0.88571   3.76780 0.77110
3.424592 0.506193    3.538529 0.663675    3.409065 0.937707   3.09287 0.63402   3.67737 1.05741   3.83101 0.89417
3.456083 0.574672    3.569816 0.764118    3.542086 1.106596   3.11163 0.71703   3.76621 1.14611   3.88144 1.02296
3.481174 0.645437    3.601088 0.866843    3.669232 1.195579   3.13039 0.80290   3.88062 1.21762   3.94465 1.14602
3.519065 0.711630    3.638732 0.971849    3.771228 1.222930   3.14913 0.89163   3.98877 1.26050   4.00785 1.26908
3.556957 0.777822    3.663633 1.072294    3.943555 1.236550   3.16151 0.97750   4.12258 1.26616   4.10928 1.39499
3.594848 0.844015    3.701291 1.175017    4.077626 1.241055   3.18026 1.06337   4.19274 1.25182   4.22987 1.51230
3.639125 0.910205    3.732579 1.275459    4.237123 1.263813   3.19903 1.14638   4.26285 1.24892   4.46536 1.58375
3.702560 0.976386    3.776622 1.378179    4.358233 1.298004   3.21141 1.23225   4.32669 1.22313   4.73315 1.55213
3.772394 1.040281    3.814281 1.480901    4.466644 1.320786   3.22379 1.31812   4.37766 1.22597   4.94381 1.46902
3.861401 1.101884    3.871125 1.579049    4.613705 1.291038   3.24253 1.40685   4.45423 1.20303   5.14172 1.38591
3.969579 1.161196    3.947112 1.679471    4.697069 1.236206   3.26130 1.48986   4.52436 1.19727   5.35876 1.29993
4.077772 1.218224    4.074448 1.738773    4.940732 1.078560   3.28004 1.57859   4.62013 1.15429   5.59486 1.22825
4.186008 1.268403    4.157476 1.736452    5.062469 1.014578   3.29243 1.66160   4.70934 1.15711   5.79918 1.13655
4.319802 1.316287    4.304887 1.651910    5.219342 0.948296   3.31119 1.74747   4.97080 1.11691   5.95894 1.03342
4.466396 1.359599    4.407671 1.555973    5.382433 0.908267   3.33631 1.83333   5.06639 1.11686   6.10597 0.92457
4.600205 1.405200    4.497683 1.460041    5.570928 0.889916   3.35505 1.92207   5.21295 1.11965   6.29122 0.82143
4.682811 1.469089    4.594096 1.361824    5.708141 0.902411   3.38018 2.00793   5.41035 1.15677   6.54001 0.76406
4.810190 1.521542    4.709622 1.270447    5.800646 0.916067   3.39896 2.08807   5.55032 1.21109   6.68024 0.75540
4.873959 1.535212    4.857077 1.179055    5.899523 0.932004   3.44320 2.17393   5.67781 1.20245   6.82041 0.76392
4.969803 1.526036    5.068243 1.110466    6.014334 0.952499   3.48758 2.22830   5.83737 1.14798   7.10067 0.79814
5.085096 1.471188    5.298493 1.053283    6.205862 0.959261   3.53215 2.23687   5.99067 1.06489   7.36813 0.84381
5.168490 1.411790    5.516030 0.986973    6.365505 0.959188   3.59610 2.18531   6.14389 0.99898   7.63560 0.88949
5.239155 1.345547    5.746338 0.920658    6.582561 0.968222   3.64105 2.10513   6.31615 0.95310   7.88393 0.93803
5.316177 1.283868    6.002088 0.870313    6.863357 0.995491   3.69242 2.01351   6.45000 0.95017   8.14496 0.99802
5.399615 1.217620    6.257735 0.835950    7.195108 1.043284   3.71827 1.93048   6.54565 0.93581   8.41242 1.04370
5.470251 1.155944    6.538750 0.828972    7.405735 1.059170   3.84679 1.67851   6.69219 0.94433   8.67991 1.08365
5.540902 1.091985    6.813146 0.858527    7.737865 1.047603   3.92399 1.50958   6.81323 0.95286   8.96659 1.10641
5.617939 1.028023    7.068298 0.901790    8.102040 1.017756   4.00753 1.34637   6.92796 0.94994   9.23424 1.10915
5.701332 0.968624    7.329806 0.949616    8.574802 0.983294   4.12929 1.18601   7.22750 0.94407   9.52750 1.08324
5.797497 0.909219    7.572128 1.002016    8.977204 0.967128   4.25746 1.01705   7.41235 0.93540   9.79530 1.04876
5.919146 0.858935    7.833680 1.042993    9.385904 0.964658   4.42380 0.86526   7.52706 0.93534   9.98657 1.02863
6.079081 0.813200    8.101705 1.070268    9.743446 0.973628   4.53247 0.78792   7.64818 0.92670
6.258027 0.790288    8.408175 1.076977    9.986088 0.975800   4.66017 0.73060   7.69274 0.93813
6.455984 0.790197    8.676419 1.070005                        4.82607 0.68186   7.94767 0.93514
6.634725 0.799248    8.970264 1.053889                        4.99190 0.65029   8.01777 0.93511
6.813351 0.826564    9.245010 1.028650                        5.26592 0.65302   8.12604 0.95223
6.979160 0.860735    9.532499 1.007970                        5.43790 0.67298   8.20253 0.94647
7.132184 0.897194    9.775272 0.989595                        5.60342 0.71298   8.43822 0.97212
7.278808 0.935940    9.979659 0.982652                        5.74976 0.76730   8.76314 0.99487
7.406318 0.967845                                             6.03602 0.89025   9.03708 1.01477
7.591227 1.011140                                             6.27142 0.98174   9.24095 1.02899
7.757080 1.038462                                             6.48787 1.03603   9.55956 1.03743
7.967649 1.063480                                             6.67255 1.06743   9.81446 1.04017
8.139990 1.074816                                             6.85720 1.10455
8.318775 1.077018                                             7.02916 1.13024
8.523133 1.074641                                             7.22028 1.14446
8.695620 1.063147                                             7.41146 1.14437
8.880879 1.051647                                             7.60266 1.14141
9.085309 1.037855                                             7.78439 1.11699
9.251469 1.017231                                             7.95977 1.08685
9.436742 1.003448                                             8.13834 1.05528
9.628416 0.987379                                             8.32328 1.02657
9.788175 0.969041                                             8.49548 0.99499
9.960589 0.968962                                             8.66764 0.97201
                                                              9.05016 0.93748
                                                              9.23502 0.92594
                                                              9.43260 0.92012
                                                              9.61741 0.92003
                                                              9.80220 0.92567
                                                              9.97421 0.93704
