# Absorption spectrum for (+)-terrein
# TITLE Antioxidant activity, NMR, X-ray, ECD and UV/vis spectra of (+)-terrein: Experimental and theoretical approaches
# DOI: 10.1016/j.molstruc.2013.12.034
#
# DATA Y1: Experimental Absorption Spectrum
# DATA Y2: Experimental CD Spectrum
# UNIT X1 : [nm]
# UNIT Y1: [a.u.] Intensity 300K
# UNIT X2 : [nm]
# UNIT Y2: [a.u.] Intensity 300K
#
#
#
X1        Y1
200.02800 1.10584
200.59663 1.09302
201.14215 1.07782
201.96837 1.05659
202.79459 1.03757
203.62081 1.02059
204.44703 1.00488
205.27325 0.98712
206.09948 0.97046
206.92570 0.95553
207.75192 0.94045
208.57814 0.92662
209.40436 0.91359
210.23058 0.90197
211.05680 0.89035
211.88303 0.87905
212.70925 0.86900
213.53547 0.85975
214.36169 0.85175
215.18791 0.84407
216.01413 0.83687
216.84036 0.82966
217.66658 0.82261
218.49280 0.81635
219.31902 0.81056
220.14524 0.80477
220.97146 0.80008
221.79768 0.79524
222.62391 0.79071
223.45013 0.78712
224.27635 0.78417
225.10257 0.78090
225.92879 0.77811
226.75501 0.77515
227.58124 0.77362
228.40746 0.76987
229.23368 0.76472
230.05990 0.76428
230.88612 0.76700
231.71234 0.76830
232.53857 0.76976
233.36479 0.77279
234.19101 0.77504
235.01723 0.77838
235.84345 0.78299
236.66967 0.78807
237.49589 0.79520
238.32212 0.80296
239.14834 0.81182
239.97456 0.82194
240.80078 0.83411
241.62700 0.84786
242.45322 0.86271
243.27945 0.87929
244.10567 0.89776
244.93189 0.91718
245.75811 0.93817
246.58433 0.95979
247.41055 0.98125
248.23677 1.00618
249.06300 1.02986
249.88922 1.05290
250.71544 1.07672
251.54166 1.10150
252.36788 1.12674
253.19410 1.15309
254.02033 1.18007
254.84655 1.20799
255.67277 1.23529
256.49899 1.26289
257.32521 1.29082
258.15143 1.31843
258.97766 1.34619
259.80388 1.37317
260.63010 1.39999
261.45632 1.42760
262.28254 1.45379
263.10876 1.47857
263.93498 1.50239
264.59413 1.51980
265.20124 1.53639
265.88235 1.55058
266.56347 1.56477
267.30650 1.57609
268.04954 1.58741
268.85449 1.59873
269.65944 1.60433
270.54476 1.60952
271.37098 1.60987
272.19720 1.60944
273.02342 1.60507
273.84964 1.59849
274.67586 1.58735
275.50209 1.57352
276.32831 1.55513
277.15453 1.53453
277.98075 1.51015
278.80697 1.48247
279.63319 1.45194
280.30919 1.42326
280.85485 1.40005
281.43586 1.37591
282.22453 1.33889
282.97564 1.30239
283.72675 1.26416
284.47786 1.22489
285.19141 1.18668
285.90497 1.14826
286.61852 1.11080
287.33208 1.07267
288.08319 1.03392
288.79674 0.99708
289.47274 0.95905
290.11119 0.92173
290.74963 0.88359
291.50074 0.84688
292.32696 0.81273
293.15318 0.77890
293.97941 0.74601
294.80563 0.71565
295.63185 0.68796
296.31902 0.66407
297.02786 0.64613
297.64706 0.62890
298.26625 0.61167
298.86162 0.59912
299.68784 0.58199
300.51407 0.56659
301.34029 0.55292
302.16651 0.54115
302.99273 0.53047
303.81895 0.52106
304.64517 0.51307
305.47140 0.50633
306.29762 0.50039
307.12384 0.49475
307.95006 0.49038
308.77628 0.48680
309.60250 0.48306
310.42873 0.47963
311.25495 0.47652
312.08117 0.47293
312.90739 0.47030
313.73361 0.47018
314.55983 0.47006
315.38605 0.46994
316.21228 0.46982
317.03850 0.46971
317.86472 0.46975
318.69094 0.47120
319.51716 0.47172
320.04294 0.47159

X2        Y2
200.19307 12.42105
200.75782 11.44311
201.23566 10.31341
201.69531 9.02749
202.06972 7.83871
202.44621 6.72493
202.82848 5.57307
203.23527 4.46644
203.62489 3.37407
203.98111 2.32473
204.35759 1.50264
204.96241 0.11407
205.47257 -1.23980
206.04598 -2.36105
206.55568 -3.35785
207.06539 -4.37278
207.60694 -5.41388
208.18036 -6.48250
208.78563 -7.58066
209.45462 -8.51869
210.15546 -9.45014
210.85630 -9.95980
211.55714 -10.40355
212.25798 -10.68913
212.95882 -10.67156
213.65966 -10.79458
214.36050 -10.59248
215.06134 -10.32007
215.76218 -10.04767
216.46303 -9.50725
217.16387 -8.87458
217.86471 -7.97389
218.46998 -7.03695
220.29048 -2.71997
220.67698 -1.74470
221.20963 -0.80030
222.13347 1.22633
222.65664 2.39544
223.00752 3.30798
223.36851 4.17275
223.91742 5.31853
224.31129 6.53820
224.68198 7.61903
225.12797 8.72371
225.57396 9.71792
226.01995 10.76046
226.49779 11.87204
226.97564 12.93529
227.48534 14.01465
227.88355 15.06180
228.31361 16.16648
228.79145 17.21247
229.33301 18.26767
229.97014 19.34996
230.67098 20.28140
231.37182 21.19527
232.07266 22.16626
232.77351 23.20315
233.47435 24.27080
234.17519 25.07922
234.87603 25.64600
235.57687 26.11611
236.27771 26.33579
236.97855 26.62138
237.67939 26.87181
238.38023 26.91136
239.08107 26.90257
239.78191 26.79273
240.48276 26.80591
241.18360 26.91575
241.88444 27.02559
242.58528 26.84545
243.28612 26.47200
243.98696 26.06339
244.68780 25.70751
245.38864 25.42192
246.08948 25.18467
246.79032 24.83757
247.49117 24.65304
248.19201 24.35867
248.89285 23.95885
249.59369 23.55903
250.29453 23.11528
250.99537 22.91317
251.69621 22.68471
252.39705 22.42548
253.09789 22.14869
253.79873 21.97734
254.49957 22.11354
255.20042 22.13111
255.90126 21.88946
256.60210 21.64342
257.20737 21.45340
257.79449 21.25475
258.49624 21.25475
259.19799 21.25475
259.91516 21.37981
260.61600 21.48525
261.31685 21.47646
262.01769 21.33148
262.71853 21.50722
263.41937 21.56434
264.12021 21.42374
264.82105 21.13376
265.52189 20.98438
266.22273 21.40177
266.92357 21.88507
267.62441 22.43427
268.32526 22.44306
268.73939 22.23876
269.52381 22.01521
270.22556 21.86312
271.00119 22.24535
271.70203 22.69349
272.40288 22.94832
273.10372 23.14604
273.80456 23.03620
274.50540 23.18558
275.20624 23.44041
275.90708 23.49752
276.60792 23.17240
277.30876 22.98347
278.00960 22.88681
278.71044 22.77697
279.41128 22.64516
280.11213 22.08718
280.81297 21.75326
281.51381 21.57752
282.21465 21.25239
282.91549 20.72076
283.61633 19.98264
284.31717 19.47298
285.01801 18.94575
285.71885 18.49321
286.41969 17.74190
287.12053 16.99938
287.82138 16.35352
288.52222 15.80871
289.22306 15.56706
289.92390 15.09255
290.62474 14.50820
291.32558 13.86234
292.02642 13.06271
292.72726 12.32019
293.42810 11.74902
294.12894 11.07680
294.82979 10.65940
295.53063 10.16732
296.23147 9.60054
296.93231 9.02059
297.63315 8.45821
298.33399 7.88704
299.03483 7.38177
299.73567 6.96877
300.18166 6.73298

